# SANS data: Pluronic F127 micelle in D2O at 25C
# Columns: q (A^-1), I(q) (cm^-1), Error
0.0005    150.0    1.5
0.0008    120.5    1.2
0.0010    95.2     0.95
0.0012    75.8     0.76
0.0015    60.3     0.60
0.0020    45.1     0.45
0.0025    32.4     0.32
0.0030    24.7     0.25
0.0035    18.9     0.19
0.0040    14.6     0.15
0.0050    9.2      0.09
0.0060    5.8      0.06
0.0070    3.7      0.04
0.0080    2.4      0.02
0.0090    1.6      0.02
0.0100   1.1      0.01
0.0120   0.65     0.01
0.0150   0.38     0.004
0.0200   0.22     0.002
0.0250   0.14     0.001
0.0300   0.09     0.001
