# SANS data: PEG2k-PDLLA4k vesicle in D2O
# Columns: q (A^-1), I(q) (cm^-1), Error
0.0004    300.8    3.0
0.0007    240.3    2.4
0.0010    192.1    1.9
0.0013    153.2    1.5
0.0017    122.0    1.2
0.0021    97.5     0.98
0.0026    72.8     0.73
0.0032    55.4     0.55
0.0040    42.1     0.42
0.0050    31.8     0.32
0.0062    22.4     0.22
0.0075    16.0     0.16
0.0090    11.2     0.11
0.0110   7.8      0.08
0.0130   5.4      0.05
0.0160   3.5      0.04
0.0200   2.2      0.02
0.0250   1.4      0.01
0.0310   0.92     0.009
0.0380   0.58     0.006
0.0450   0.37     0.004
0.0500   0.25     0.003
